time [sec],V [mV],I [mA]
29748.49,3204.196930,1.106336
29748.53,3207.270384,-321.794808
29748.55,3212.760210,-801.658988
29748.57,3218.514204,-1241.117716
29748.59,3223.177433,-1551.412463
29748.61,3226.472616,-1728.935480
29748.65,3229.646444,-1822.589040
29748.96,3232.663393,-1747.526884
29749.53,3235.743046,-1748.199105
29750.22,3238.818407,-1748.108745
29751.08,3241.887093,-1748.180032
29751.85,3244.913578,-1748.216748
29752.89,3247.922421,-1748.175263
29753.75,3250.929594,-1748.272657
29754.73,3253.949165,-1748.238444
29755.72,3256.954193,-1748.271346
29756.60,3259.984970,-1748.051405
29757.70,3262.996435,-1748.032570
29758.81,3266.019106,-1747.875094
29759.76,3269.114494,-1748.386145
29761.01,3272.123575,-1747.934580
29762.02,3275.165796,-1748.900056
29763.04,3278.210163,-1748.184681
29764.24,3281.242132,-1748.073459
29765.47,3284.316778,-1748.438239
29766.63,3287.321806,-1748.648524
29767.81,3290.402651,-1748.364449
29769.25,3293.553352,-1748.714805
29770.46,3296.612263,-1747.960687
29771.69,3299.621820,-1748.174310
29772.87,3302.653074,-1748.831630
29774.33,3305.663586,-1747.573614
29775.56,3308.667898,-1748.257756
29776.91,3311.698198,-1747.652531
29778.13,3314.702272,-1748.394370
29779.61,3317.707539,-1747.972012
29780.96,3320.737600,-1748.359084
29782.38,3323.746204,-1748.412490
29783.87,3326.762676,-1748.023629
29785.40,3329.804659,-1748.434067
29786.82,3332.827568,-1748.292565
29788.20,3335.838318,-1748.304367
29789.87,3338.879347,-1748.338342
29791.35,3341.918707,-1747.986317
29793.00,3344.970226,-1748.058319
29794.55,3347.980499,-1748.178720
29796.17,3351.102352,-1747.962475
29797.83,3354.155064,-1748.231649
29799.55,3357.180595,-1748.061657
29801.21,3360.244989,-1748.049140
29802.87,3363.271475,-1748.465180
29804.53,3366.282463,-1748.508453
29806.25,3369.289875,-1748.105288
29808.15,3372.319937,-1748.239756
29809.93,3375.335932,-1748.296499
29811.60,3378.424168,-1748.055577
29813.57,3381.472349,-1747.950077
29815.32,3384.485006,-1748.558879
29817.26,3387.522936,-1748.272657
29819.11,3390.573978,-1748.899698
29820.98,3393.583775,-1748.094678
29822.94,3396.595478,-1748.192668
29825.02,3399.615288,-1747.955918
29827.05,3402.628422,-1748.573661
29828.93,3405.647755,-1748.678207
29830.90,3408.654213,-1748.317242
29833.12,3411.665678,-1748.113990
29835.23,3414.712429,-1748.186231
29837.54,3417.723179,-1748.089075
29839.54,3420.731544,-1748.388171
29841.58,3423.780918,-1748.172164
29843.99,3426.795244,-1747.507811
29845.97,3429.795980,-1747.849464
29848.25,3432.845116,-1748.438835
29850.56,3435.862780,-1748.206019
29853.06,3438.877344,-1748.267055
29855.39,3441.893816,-1748.455286
29857.72,3444.904566,-1748.252749
29860.13,3447.934389,-1748.332858
29862.56,3450.957060,-1748.283267
29865.09,3453.957319,-1748.348117
29867.35,3456.960440,-1748.181343
29870.09,3459.963322,-1747.716188
29872.56,3462.970734,-1748.474360
29874.84,3465.971470,-1748.114228
29877.56,3469.004154,-1748.610735
29880.30,3472.014904,-1748.774529
29882.73,3475.026131,-1747.921586
29885.50,3478.026390,-1748.469710
29888.15,3481.052399,-1747.993350
29891.33,3484.080076,-1748.132348
29894.00,3487.089634,-1748.212576
29896.63,3490.143776,-1748.071074
29899.61,3493.150234,-1748.695970
29902.10,3496.172667,-1747.772574
29905.23,3499.199629,-1748.567343
29908.18,3502.207756,-1748.545170
29911.22,3505.236149,-1748.451829
29914.37,3508.248329,-1748.206377
29917.26,3511.295319,-1748.120070
29920.42,3514.323473,-1748.417854
29923.52,3517.337084,-1748.188138
29926.56,3520.360231,-1748.452902
29929.90,3523.385048,-1747.934341
29932.89,3526.454926,-1748.139024
29936.11,3529.502153,-1748.173356
29939.36,3532.510757,-1747.779727
29943.08,3535.534382,-1748.670697
29946.12,3538.553953,-1747.794628
29949.61,3541.583300,-1747.940302
29952.85,3544.594049,-1748.505473
29956.22,3547.632217,-1748.026133
29960.09,3550.693512,-1748.270273
29963.74,3553.722858,-1748.548865
29967.31,3556.732655,-1748.310447
29970.70,3559.749842,-1747.881889
29974.42,3562.777042,-1748.723149
29978.21,3565.799952,-1748.055220
29981.91,3568.812847,-1748.300314
29985.16,3571.824551,-1748.294473
29989.37,3574.892044,-1748.546243
29993.24,3577.904701,-1748.295665
29997.58,3580.936670,-1748.205781
30001.35,3583.968163,-1748.365402
30005.31,3586.991549,-1748.103142
30009.37,3590.017796,-1747.953892
30013.30,3593.018293,-1748.404145
30017.49,3596.054554,-1748.413563
30021.66,3599.102497,-1748.224378
30025.89,3602.109671,-1748.178005
30030.28,3605.119705,-1748.514533
30034.73,3608.125448,-1748.490095
30039.11,3611.130953,-1748.518586
30043.52,3614.181280,-1748.059869
30047.66,3617.215872,-1748.520851
30052.73,3620.216846,-1748.597264
30056.97,3623.241663,-1748.245001
30061.84,3626.275301,-1748.790383
30065.85,3629.316330,-1748.308063
30071.44,3632.380962,-1748.238206
30076.00,3635.390997,-1748.027682
30080.81,3638.424635,-1747.374177
30085.76,3641.460896,-1748.217225
30091.23,3644.469976,-1748.101115
30096.57,3647.554159,-1748.592019
30101.66,3650.566578,-1748.148322
30106.94,3653.591871,-1748.071909
30111.90,3656.643867,-1747.486234
30117.15,3659.655571,-1748.355389
30123.11,3662.667990,-1748.067737
30128.36,3665.702105,-1748.324871
30134.02,3668.716669,-1748.178601
30140.06,3671.791553,-1748.171568
30145.60,3674.805164,-1748.359203
30151.12,3677.862406,-1748.150826
30157.63,3680.892706,-1748.036861
30163.06,3683.923721,-1748.254776
30169.33,3686.929703,-1748.167396
30174.86,3689.955711,-1747.954488
30181.29,3693.029165,-1748.484969
30188.25,3696.053267,-1748.504758
30194.61,3699.115276,-1748.238444
30200.38,3702.119112,-1748.245358
30207.92,3705.159664,-1748.074889
30214.57,3708.180189,-1747.879505
30221.59,3711.209297,-1748.016953
30228.78,3714.279890,-1748.100162
30236.02,3717.300415,-1747.962236
30243.47,3720.301628,-1747.679830
30251.71,3723.353148,-1748.195887
30258.76,3726.360083,-1747.884750
30267.69,3729.367495,-1748.027921
30276.10,3732.376814,-1748.254657
30284.23,3735.389471,-1748.186946
30293.61,3738.389969,-1748.388886
30302.14,3741.399050,-1748.227000
30312.01,3744.409323,-1748.244524
30321.58,3747.482061,-1747.937799
30332.92,3750.490427,-1748.466969
30344.36,3753.513575,-1748.262644
30356.47,3756.551981,-1748.141289
30370.12,3759.597063,-1748.167396
30385.02,3762.631893,-1748.117566
30401.03,3765.632153,-1748.353124
30421.01,3768.662930,-1748.062253
30442.32,3771.685362,-1748.308539
30465.87,3774.689674,-1748.215318
30494.90,3777.697325,-1748.346329
30526.10,3780.698776,-1748.175025
30557.20,3783.737898,-1748.263478
30591.12,3786.750078,-1748.144269
30623.74,3789.806843,-1747.163296
30657.12,3792.824745,-1748.533249
30694.51,3795.832157,-1748.217344
30727.58,3798.873663,-1748.593450
30765.96,3801.910877,-1748.049140
30799.47,3804.961920,-1747.949004
30834.34,3807.968616,-1748.583436
30870.85,3810.990572,-1747.965455
30906.35,3813.995123,-1748.206615
30940.68,3817.006826,-1748.080969
30972.90,3820.007801,-1748.814702
31006.27,3823.090792,-1748.274922
31039.53,3826.125622,-1748.148561
31073.50,3829.127312,-1748.212814
31104.83,3832.129240,-1748.714089
31137.32,3835.141420,-1748.729348
31167.22,3838.152170,-1748.456717
31199.30,3841.185093,-1747.816205
31230.77,3844.205379,-1748.368263
31261.20,3847.240448,-1748.505473
31290.08,3850.288153,-1748.279452
31319.32,3853.384018,-1748.441339
31348.50,3856.401920,-1748.544931
31376.82,3859.478235,-1748.403549
31407.20,3862.487078,-1748.392940
31432.87,3865.495920,-1748.273373
31462.36,3868.511677,-1748.099685
31489.54,3871.557236,-1748.659253
31518.99,3874.584436,-1748.260498
31547.02,3877.601624,-1748.395801
31575.75,3880.646467,-1748.257041
31605.97,3883.687496,-1748.417258
31634.75,3886.723042,-1748.170018
31663.44,3889.766932,-1747.130036
31692.07,3892.795801,-1748.146534
31723.26,3895.880699,-1747.445107
31754.32,3898.895502,-1748.053551
31784.36,3901.911259,-1748.141289
31815.43,3904.930592,-1747.895837
31846.27,3907.986879,-1748.298287
31877.82,3910.992622,-1747.973680
31909.28,3914.016247,-1747.355580
31940.46,3917.092800,-1748.099566
31973.67,3920.117617,-1748.110652
32005.10,3923.126221,-1748.159528
32038.29,3926.151037,-1748.220921
32070.27,3929.173946,-1748.245001
32104.39,3932.232380,-1748.185873
32136.80,3935.258627,-1748.174787
32168.55,3938.276768,-1748.393774
32202.00,3941.293955,-1748.231530
32233.83,3944.306374,-1748.160362
32268.33,3947.323322,-1748.148084
32300.72,3950.345755,-1748.063445
32334.79,3953.353643,-1748.063207
32369.81,3956.411839,-1748.371959
32403.89,3959.452629,-1747.850657
32441.18,3962.456703,-1748.348236
32477.30,3965.467930,-1748.532772
32513.65,3968.492746,-1749.304652
32548.71,3971.494675,-1748.589277
32584.22,3974.515676,-1748.096228
32620.40,3977.531433,-1748.109341
32653.56,3980.537653,-1747.806787
32692.82,3983.572483,-1748.308659
32728.21,3986.581802,-1747.850657
32764.01,3989.585400,-1748.395085
32802.30,3992.610455,-1748.070478
32838.72,3995.682716,-1748.194695
32875.63,3998.687506,-1748.196483
32912.76,4001.715660,-1748.256207
32950.27,4004.790783,-1749.030828
32985.55,4007.814884,-1748.079419
33020.17,4010.843754,-1747.828841
33061.40,4013.877869,-1748.064041
33098.03,4016.900539,-1748.419285
33136.35,4019.920349,-1748.240709
33177.34,4022.947311,-1747.249603
33216.08,4025.965691,-1748.906851
33257.06,4028.978825,-1746.253371
33301.33,4031.988144,-1748.664260
33344.19,4034.988403,-1748.786092
33390.47,4038.050652,-1748.198032
33437.07,4041.085720,-1748.373032
33487.65,4044.129372,-1748.336434
33537.75,4047.156334,-1748.096585
33593.71,4050.178528,-1748.066783
33653.08,4053.179264,-1748.811245
33713.08,4055.709839,-1748.616338
33766.82,4058.766842,-1748.241305
33826.82,4061.275482,-1748.320580
33885.98,4064.276218,-1748.037696
33945.98,4066.644669,-1748.302698
34005.98,4069.272041,-1748.465896
34065.98,4071.440220,-1747.949123
34125.98,4073.840618,-1747.459650
34185.98,4076.307774,-1748.364568
34245.98,4078.676224,-1748.368502
34305.98,4081.314087,-1747.863531
34365.98,4083.700657,-1748.465419
34425.98,4086.191654,-1747.519255
34485.98,4088.214397,-1748.707533
34545.98,4090.882778,-1748.625159
34605.98,4093.210697,-1747.734666
34665.98,4095.938683,-1747.990847
34725.98,4098.540783,-1748.149991
34785.98,4100.607395,-1748.507142
34843.30,4103.622913,-1747.918010
34903.30,4105.772018,-1747.784019
34955.71,4108.777046,-1748.955369
35015.71,4111.286640,-1748.275399
35074.45,4114.293098,-1748.253465
35134.45,4116.828442,-1748.284101
35184.91,4119.859219,-1747.857571
35244.91,4122.438908,-1748.256803
35297.59,4125.475883,-1748.151660
35350.67,4128.492355,-1748.334289
35408.95,4131.504059,-1748.391271
35460.64,4134.518147,-1747.542143
35510.49,4137.520790,-1747.978926
35557.07,4140.527248,-1747.499228
35605.81,4143.537045,-1747.843504
35648.40,4146.620274,-1748.299599
35693.76,4149.634838,-1748.482347
35735.88,4152.640343,-1748.129606
35776.04,4155.661583,-1747.971773
35813.30,4158.780098,-1747.862935
35854.88,4161.794186,-1747.946858
35892.72,4164.806366,-1747.998476
35925.83,4167.822838,-1748.107195
35954.45,4170.857430,-1748.147488
35990.33,4173.903465,-1748.098969
36019.42,4176.941872,-1748.676538
36050.94,4179.999828,-1747.926593
36082.64,4183.017731,-1748.534799
36111.90,4186.056614,-1748.103380
36140.98,4189.058781,-1748.164177
36166.72,4192.076683,-1748.572469
36193.65,4195.176125,-1747.823715
36220.21,4198.187351,-1748.475313
36226.68,4199.031830,-1748.345256
36226.69,4198.746204,-1716.317534
36226.72,4193.776608,-1156.992793
36226.74,4189.111710,-677.364290
36226.76,4185.107708,-305.505425
36226.79,4181.212425,-4.399700
36227.02,4178.117752,-0.330934
36228.19,4175.063133,1.149791
36230.67,4172.033787,0.904355
36234.15,4169.000149,0.735491
36239.00,4165.980339,1.204487
36246.49,4162.937641,1.192236
36253.92,4159.926891,1.116324
36265.32,4156.913280,0.817440
36277.78,4153.853893,0.964808
36293.96,4150.786400,1.293823
36313.64,4147.746563,1.195105
36336.69,4144.736767,0.405974
36362.28,4141.673565,1.155817
36394.30,4138.664246,0.787452
36429.50,4135.603428,0.856926
36478.15,4132.576942,0.964280
36537.85,4129.518509,0.593052
36597.85,4127.555370,1.059608
36657.85,4125.737190,1.204920
36717.85,4123.907089,1.284853
36777.85,4122.301579,0.689010
36826.68,4121.679783,1.106327
36826.69,4121.686459,1.130004
36826.73,4118.462086,377.854049
36826.75,4113.825321,861.580014
36826.77,4109.272480,1287.586212
36826.79,4105.695248,1580.815911
36826.82,4102.671623,1787.609220
36827.22,4099.650860,1749.847770
36828.34,4096.636295,1749.915004
36830.62,4093.612671,1749.385357
36833.73,4090.588093,1749.984980
36837.75,4087.565899,1750.003576
36842.54,4084.537029,1749.887466
36847.93,4081.520081,1749.892354
36853.89,4078.477859,1749.978542
36860.91,4075.459480,1750.188351
36868.36,4072.432995,1750.494599
36877.04,4069.401264,1749.844909
36886.60,4066.398144,1749.767542
36896.97,4063.382149,1749.915242
36908.99,4060.373783,1750.419736
36920.90,4057.373524,1749.798298
36936.12,4054.369450,1749.904633
36951.38,4051.307678,1750.180483
36971.00,4048.304081,1749.874949
36989.71,4045.287132,1749.776483
37011.07,4042.265892,1750.025272
37036.09,4039.258003,1749.878764
37064.71,4036.157131,1750.068784
37092.64,4033.141613,1750.138283
37123.94,4030.115128,1749.992013
37159.49,4027.112961,1750.396013
37193.11,4024.090767,1749.742031
37229.20,4021.047115,1750.010014
37272.43,4018.015862,1750.159979
37317.23,4015.015602,1749.688864
37359.20,4011.973858,1749.820948
37408.41,4008.928299,1750.003338
37453.55,4005.914688,1750.363827
37503.46,4002.899647,1749.837399
37553.02,3999.846935,1750.134945
37608.46,3996.834278,1749.606609
37659.96,3993.817806,1749.921918
37716.39,3990.791559,1749.773860
37776.39,3987.977982,1749.741316
37836.39,3985.137939,1750.129938
37892.81,3982.121468,1750.188112
37952.81,3980.276346,1749.897599
38005.66,3977.257967,1749.761939
38065.66,3974.697351,1749.935031
38125.66,3972.089529,1750.210643
38185.66,3970.026016,1750.428438
38243.54,3967.010498,1749.527097
38303.54,3964.870691,1749.968767
38363.54,3962.383986,1749.996066
38423.54,3959.930897,1750.288248
38479.86,3956.891537,1750.148058
38539.86,3955.091953,1750.014067
38594.18,3952.049971,1749.930859
38654.18,3949.826956,1750.202060
38711.43,3946.805477,1750.573397
38771.43,3944.152594,1749.636292
38827.69,3941.120386,1750.224829
38887.69,3938.407183,1750.024199
38944.74,3935.367584,1750.506878
39002.81,3932.348728,1750.309706
39057.51,3929.340363,1749.822617
39106.85,3926.330805,1750.004411
39160.75,3923.326969,1749.820113
39211.85,3920.293331,1749.363780
39257.17,3917.281389,1749.793649
39308.04,3914.244652,1749.961257
39350.81,3911.199331,1749.815106
39400.24,3908.175230,1750.266433
39443.24,3905.130386,1749.922633
39483.89,3902.124643,1749.918461
39525.55,3899.113655,1749.670148
39566.11,3896.101236,1749.469876
39602.85,3893.084288,1749.943137
39644.40,3890.083313,1749.931931
39682.10,3887.058973,1749.158382
39720.92,3884.039164,1750.270128
39758.56,3881.001711,1749.847293
39797.50,3877.998829,1749.639750
39832.55,3874.974012,1750.143409
39869.83,3871.964931,1749.922395
39903.77,3868.941784,1749.669909
39941.57,3865.939140,1750.049949
39978.93,3862.897158,1749.892235
40013.39,3859.894991,1750.000715
40049.28,3856.866598,1749.854565
40084.47,3853.798151,1749.721766
40121.51,3850.795984,1750.200152
40157.70,3847.792625,1750.166178
40194.75,3844.790697,1749.858975
40228.75,3841.734171,1749.909282
40267.82,3838.733435,1749.955058
40303.62,3835.680485,1751.288533
40340.24,3832.674742,1749.873996
40374.48,3829.660177,1750.097394
40411.66,3826.610565,1749.429822
40451.38,3823.595524,1749.655247
40488.02,3820.583105,1750.904799
40525.94,3817.570210,1750.134826
40564.96,3814.566851,1749.882340
40603.42,3811.539412,1750.043154
40644.39,3808.535576,1749.101639
40680.57,3805.520773,1751.542807
40721.16,3802.486420,1749.621749
40762.44,3799.472094,1749.858260
40799.11,3796.450615,1749.604464
40840.29,3793.422937,1750.332713
40881.18,3790.419579,1748.741865
40920.38,3787.393093,1749.746680
40960.97,3784.363031,1749.447107
40999.04,3781.335354,1748.744845
41039.60,3778.307438,1750.336647
41079.47,3775.263786,1749.947667
41116.15,3772.255898,1750.046015
41154.25,3769.235373,1750.137687
41191.12,3766.205072,1749.654889
41227.10,3763.204098,1749.690413
41262.78,3760.178566,1750.060439
41297.73,3757.160425,1749.938607
41333.87,3754.158974,1750.246525
41368.57,3751.153708,1749.922514
41402.99,3748.141527,1750.124812
41435.33,3745.140553,1749.909043
41471.76,3742.133379,1749.709845
41501.68,3739.122868,1749.959111
41536.80,3736.081362,1750.025034
41567.89,3733.047724,1750.425816
41600.46,3730.039835,1749.777198
41630.49,3726.969957,1748.465538
41661.83,3723.939419,1749.862671
41693.27,3720.908880,1749.956965
41726.72,3717.897654,1749.633551
41754.93,3714.875937,1749.886632
41783.86,3711.853504,1749.888659
41817.02,3708.852053,1749.913812
41847.04,3705.837965,1749.599338
41879.36,3702.776194,1749.968648
41913.32,3699.735880,1749.904990
41947.12,3696.684361,1750.066996
41982.32,3693.682194,1750.292301
42017.54,3690.669060,1749.807119
42056.40,3687.655926,1749.908566
42096.53,3684.643745,1750.224710
42132.77,3681.612015,1749.802828
42171.58,3678.601980,1749.926686
42210.42,3675.592184,1750.073075
42249.72,3672.586679,1749.859571
42285.76,3669.572115,1749.831200
42318.95,3666.532516,1750.164390
42351.60,3663.461685,1750.195742
42386.69,3660.455704,1749.885917
42415.74,3657.444715,1749.927282
42444.50,3654.423475,1749.886751
42471.63,3651.399374,1749.784112
42497.76,3648.392439,1749.960303
42522.68,3645.385981,1750.118613
42547.83,3642.379761,1750.213623
42568.66,3639.363289,1749.841332
42588.44,3636.343479,1749.949932
42605.09,3633.308411,1749.833345
42621.42,3630.305767,1750.144601
42637.33,3627.303123,1749.816298
42651.20,3624.247313,1750.063062
42664.53,3621.236563,1749.984980
42677.00,3618.191481,1750.099540
42688.38,3615.112305,1749.456167
42700.33,3612.090111,1749.944568
42710.13,3609.049082,1750.139117
42720.52,3606.022596,1750.157595
42730.67,3602.995396,1749.737382
42739.34,3599.926233,1750.046611
42748.45,3596.902132,1750.311255
42756.59,3593.842030,1750.026464
42765.14,3590.793610,1749.708772
42773.38,3587.793112,1750.049114
42780.29,3584.787607,1750.039458
42788.02,3581.748486,1750.070214
42795.56,3578.734875,1749.807954
42802.64,3575.712919,1750.162125
42808.91,3572.691441,1750.113368
42816.24,3569.674253,1749.876022
42822.65,3566.673756,1749.991298
42829.43,3563.660622,1749.921441
42835.02,3560.634851,1749.802828
42841.70,3557.615280,1749.528170
42847.68,3554.612398,1749.546647
42852.98,3551.607847,1750.093460
42859.50,3548.535347,1749.890447
42865.39,3545.523167,1749.819040
42871.06,3542.520523,1749.836326
42876.49,3539.486408,1749.328136
42882.09,3536.426067,1750.231147
42887.59,3533.394575,1749.737382
42893.15,3530.386448,1750.147700
42898.40,3527.365208,1750.466704
42903.54,3524.301767,1749.016523
42908.93,3521.274328,1749.760628
42913.93,3518.229485,1749.792695
42918.77,3515.209913,1749.691725
42923.88,3512.129307,1750.324249
42928.92,3509.101629,1750.220180
42934.17,3506.058216,1751.259923
42938.82,3503.009081,1750.185132
42943.15,3499.997616,1749.940753
42948.42,3496.993780,1749.898195
42952.73,3493.949890,1749.859571
42957.29,3490.928888,1749.770164
42962.07,3487.887859,1750.683427
42966.42,3484.865427,1749.884367
42971.11,3481.856585,1749.576211
42975.36,3478.850126,1750.101924
42979.54,3475.781202,1749.830127
42983.59,3472.762346,1749.662042
42988.47,3469.718456,1749.787807
42992.55,3466.706514,1749.997020
42996.71,3463.699102,1749.827504
43000.58,3460.628986,1749.919653
43004.84,3457.572937,1750.215888
43009.00,3454.571962,1750.005126
43012.79,3451.563358,1749.963045
43016.97,3448.554039,1749.895096
43020.89,3445.497036,1749.578834
43024.77,3442.419052,1750.018001
43028.66,3439.407825,1749.698877
43032.40,3436.405897,1750.183582
43036.55,3433.387518,1749.757409
43039.95,3430.355787,1749.906540
43043.55,3427.344561,1749.825001
43047.08,3424.343824,1750.008225
43050.89,3421.294212,1750.048161
43054.47,3418.270826,1749.848127
43058.08,3415.262461,1750.258684
43061.63,3412.212133,1750.035763
43065.08,3409.176111,1749.945998
