time [sec],V [mV],I [mA]
8176.72,3200.475216,2.055981
8176.76,3203.722954,-315.461874
8176.78,3209.190607,-794.683635
8176.80,3214.865208,-1235.709429
8176.82,3219.492197,-1548.117995
8176.84,3222.647667,-1727.293730
8176.88,3225.693703,-1822.726011
8177.15,3228.708982,-1747.960567
8177.75,3231.765985,-1748.136044
8178.35,3234.790325,-1748.147726
8179.15,3237.856865,-1748.424888
8180.02,3240.887403,-1748.390913
8180.88,3243.946791,-1748.480558
8181.82,3246.953011,-1748.286843
8182.79,3249.981642,-1748.362899
8183.89,3252.995253,-1748.358607
8184.76,3256.031275,-1748.390198
8185.84,3259.051561,-1748.461962
8186.93,3262.071609,-1748.609185
8188.02,3265.113592,-1748.576760
8189.04,3268.126726,-1748.608470
8190.17,3271.167040,-1748.276472
8191.21,3274.224758,-1747.976184
8192.45,3277.273893,-1748.239398
8193.62,3280.303955,-1748.162150
8194.80,3283.325195,-1748.325825
8196.05,3286.419153,-1748.584151
8197.27,3289.443731,-1748.304605
8198.43,3292.479515,-1748.622060
8199.80,3295.559168,-1748.180270
8201.10,3298.651218,-1748.472214
8202.35,3301.710129,-1748.360753
8203.68,3304.724932,-1748.432517
8205.10,3307.732344,-1748.207211
8206.27,3310.732365,-1748.342276
8207.73,3313.747406,-1748.758316
8209.14,3316.780090,-1748.361468
8210.58,3319.780350,-1748.396158
8211.95,3322.784185,-1748.308897
8213.50,3325.806856,-1748.837709
8214.92,3328.856707,-1748.554111
8216.41,3331.869602,-1748.102903
8217.81,3334.927320,-1748.477459
8219.55,3337.984324,-1747.923136
8221.05,3341.006756,-1748.363972
8222.67,3344.016314,-1748.489022
8224.19,3347.072601,-1748.417974
8225.83,3350.129604,-1748.449087
8227.70,3353.250980,-1748.512387
8229.35,3356.255293,-1748.730183
8231.03,3359.280586,-1748.323321
8232.65,3362.291813,-1748.491049
8234.58,3365.315437,-1748.584032
8236.06,3368.325710,-1748.158336
8238.00,3371.356010,-1748.622894
8239.73,3374.405384,-1748.426795
8241.62,3377.410889,-1748.430014
8243.44,3380.415201,-1748.350501
8245.14,3383.423567,-1748.437047
8247.10,3386.461973,-1748.550296
8248.93,3389.466047,-1748.285174
8250.99,3392.493486,-1748.532057
8252.96,3395.500660,-1748.551965
8254.99,3398.529530,-1748.629808
8256.99,3401.541233,-1748.619318
8258.98,3404.547215,-1748.572111
8260.98,3407.598734,-1748.676658
8263.26,3410.604477,-1748.393536
8265.39,3413.607121,-1748.249769
8267.48,3416.614056,-1748.313427
8269.55,3419.628382,-1748.360395
8271.81,3422.636509,-1748.524189
8274.15,3425.702333,-1748.707891
8276.27,3428.712130,-1748.513699
8278.60,3431.765795,-1748.411298
8280.92,3434.815645,-1748.376727
8283.21,3437.862396,-1748.620749
8285.56,3440.881014,-1748.471737
8287.87,3443.927526,-1748.629093
8290.48,3446.938992,-1748.495102
8293.04,3449.943542,-1748.434424
8295.28,3452.981949,-1748.579741
8297.96,3456.000805,-1748.405695
8300.28,3459.076881,-1748.671412
8303.00,3462.136984,-1748.462439
8305.65,3465.139866,-1748.516202
8308.11,3468.142986,-1748.440027
8310.93,3471.144438,-1748.409390
8313.43,3474.172354,-1748.119712
8316.22,3477.191448,-1748.205543
8318.80,3480.203867,-1748.391867
8321.74,3483.206034,-1748.414755
8324.49,3486.221075,-1748.419762
8327.26,3489.223719,-1748.274565
8330.01,3492.229223,-1748.455405
8332.91,3495.256424,-1748.661041
8335.72,3498.291731,-1748.398542
8338.69,3501.301765,-1748.608828
8341.70,3504.340172,-1748.811483
8344.72,3507.356644,-1748.332024
8347.68,3510.431290,-1748.505473
8350.96,3513.549805,-1748.234510
8354.21,3516.598225,-1748.399615
8357.17,3519.598961,-1748.589277
8360.17,3522.602797,-1748.447299
8363.57,3525.603056,-1748.298526
8366.94,3528.604269,-1748.783588
8369.89,3531.604767,-1748.114228
8373.48,3534.624100,-1748.379111
8376.80,3537.642956,-1748.398662
8380.06,3540.642977,-1748.366952
8383.74,3543.650627,-1748.366117
8387.24,3546.657562,-1748.431802
8390.70,3549.754381,-1748.434186
8394.25,3552.854538,-1748.587608
8398.14,3555.881262,-1748.379111
8401.32,3558.913231,-1748.463392
8405.35,3561.990976,-1748.453140
8409.05,3565.066099,-1748.466849
8412.96,3568.076134,-1748.336554
8416.45,3571.093321,-1748.519659
8420.54,3574.140549,-1748.613477
8424.43,3577.152491,-1748.430967
8428.14,3580.155373,-1748.511076
8432.48,3583.193302,-1748.485923
8436.31,3586.194038,-1748.330116
8440.35,3589.217663,-1748.335838
8444.60,3592.218637,-1748.450279
8448.55,3595.223904,-1748.315930
8452.94,3598.259211,-1748.480797
8456.89,3601.315737,-1748.528719
8461.28,3604.331732,-1748.215318
8465.90,3607.368946,-1748.260021
8469.95,3610.414505,-1748.671412
8474.70,3613.443851,-1748.812199
8478.97,3616.444826,-1748.306274
8483.60,3619.493484,-1748.722076
8488.38,3622.511625,-1748.529911
8492.82,3625.542641,-1748.461723
8496.88,3628.557205,-1748.258114
8502.69,3631.557226,-1748.481035
8507.13,3634.567499,-1748.512149
8512.29,3637.574196,-1748.298407
8517.13,3640.595436,-1748.510718
8522.41,3643.665552,-1748.452663
8527.67,3646.676064,-1748.581290
8532.71,3649.742126,-1748.481631
8538.22,3652.784586,-1748.020530
8543.84,3655.823231,-1748.103857
8548.97,3658.824921,-1748.366237
8554.41,3661.856890,-1748.554587
8560.03,3664.902687,-1748.555660
8565.34,3667.915344,-1748.249769
8571.02,3670.965433,-1748.443842
8577.17,3673.973799,-1748.209953
8582.57,3676.994324,-1748.674989
8589.06,3680.031776,-1748.627782
8594.84,3683.097363,-1748.441696
8600.93,3686.182022,-1748.345613
8607.53,3689.182520,-1748.450160
8613.70,3692.227840,-1748.576760
8620.07,3695.247889,-1748.600364
8626.84,3698.346138,-1748.240232
8633.22,3701.396704,-1748.286486
8639.81,3704.438925,-1748.167038
8647.24,3707.545757,-1748.438120
8654.56,3710.565567,-1748.278022
8661.36,3713.627815,-1748.371363
8669.06,3716.698170,-1748.480797
8676.57,3719.701052,-1748.386860
8683.92,3722.713470,-1748.419523
8691.84,3725.714207,-1748.470545
8699.27,3728.751898,-1748.396873
8708.35,3731.759787,-1748.515010
8717.12,3734.772682,-1748.498917
8725.85,3737.774611,-1748.331070
8735.06,3740.782499,-1748.453736
8744.99,3743.785143,-1748.610020
8754.05,3746.804237,-1748.637438
8765.07,3749.876499,-1748.464465
8777.84,3752.941608,-1748.285413
8790.59,3755.957127,-1748.349667
8804.08,3758.984089,-1748.392344
8819.67,3761.984110,-1748.519063
8836.99,3764.993429,-1748.371124
8857.91,3768.068075,-1748.444438
8880.47,3771.087646,-1748.352647
8907.90,3774.091244,-1748.461008
8936.61,3777.116776,-1748.599648
8966.43,3780.124426,-1748.500943
8997.74,3783.146143,-1748.273849
9032.05,3786.162615,-1748.491645
9063.46,3789.187431,-1748.297691
9098.45,3792.205572,-1748.269320
9131.85,3795.215845,-1748.693585
9167.48,3798.236847,-1748.684287
9199.76,3801.245928,-1748.666525
9235.98,3804.322720,-1747.856617
9271.70,3807.326555,-1748.335004
9306.27,3810.368776,-1748.268723
9343.69,3813.406467,-1748.693347
9379.57,3816.415071,-1748.576522
9411.23,3819.449186,-1748.717070
9446.46,3822.487593,-1748.296618
9481.00,3825.531006,-1748.739243
9514.23,3828.581810,-1748.305678
9544.13,3831.601858,-1748.560429
9577.15,3834.685326,-1748.378992
9603.12,3837.706566,-1748.184323
9638.53,3840.744019,-1748.520851
9666.65,3843.750715,-1748.325586
9697.72,3846.767664,-1748.444200
9728.55,3849.798441,-1748.540878
9757.54,3852.827549,-1748.422146
9786.97,3855.919123,-1748.225927
9816.61,3858.927965,-1748.742223
9844.50,3861.936569,-1748.375177
9872.77,3864.938736,-1748.414516
9902.12,3867.973804,-1748.477936
9929.83,3871.029854,-1748.424649
9959.06,3874.039412,-1748.368502
9985.31,3877.048254,-1748.123765
10015.76,3880.132675,-1748.138309
10044.70,3883.137703,-1748.160481
10074.40,3886.144400,-1748.253942
10104.60,3889.146566,-1748.379827
10134.18,3892.182112,-1748.604298
10164.15,3895.196676,-1748.466611
10196.93,3898.203611,-1748.349309
10227.56,3901.219130,-1748.188496
10257.80,3904.242516,-1748.287916
10291.08,3907.264709,-1748.937488
10323.27,3910.269976,-1748.125315
10354.30,3913.271904,-1748.560667
10387.62,3916.319370,-1748.443484
10418.05,3919.396877,-1748.307824
10450.38,3922.451973,-1747.917175
10482.72,3925.451994,-1748.499870
10513.98,3928.453445,-1748.440862
10551.10,3931.512117,-1748.535275
10580.92,3934.521198,-1748.206139
10616.20,3937.545061,-1748.294115
10653.97,3940.548658,-1748.571396
10686.98,3943.609953,-1748.682737
10721.21,3946.622133,-1748.789191
10754.43,3949.683666,-1748.458266
10792.28,3952.691793,-1748.278022
10825.58,3955.720186,-1748.490334
10862.94,3958.732128,-1748.324752
10899.66,3961.747408,-1748.087764
10938.56,3964.757919,-1748.606086
10975.08,3967.784405,-1748.637557
11013.30,3970.787525,-1748.625517
11051.05,3973.799229,-1748.607278
11087.18,3976.801634,-1748.350024
11127.50,3979.830027,-1748.481989
11165.04,3982.875586,-1748.384953
11202.90,3985.884428,-1748.368621
11238.62,3988.919258,-1748.490691
11276.33,3991.981745,-1748.235345
11316.11,3995.011330,-1748.256326
11354.08,3998.016834,-1748.648047
11388.64,4001.028061,-1748.224974
11422.17,4004.046917,-1748.150706
11462.96,4007.053852,-1748.317957
11503.75,4010.056019,-1748.297453
11535.83,4013.069630,-1748.398423
11574.82,4016.129494,-1748.349071
11615.90,4019.148827,-1748.314023
11656.08,4022.152901,-1748.302460
11698.71,4025.154114,-1748.708606
11737.70,4028.155327,-1748.188972
11780.10,4031.214237,-1748.528719
11824.56,4034.267426,-1748.455286
11868.99,4037.281036,-1748.414874
11915.30,4040.304661,-1748.288512
11961.93,4043.318272,-1748.258948
12016.02,4046.360016,-1748.184562
12072.35,4049.373627,-1748.327971
12129.75,4052.385807,-1748.523831
12186.18,4055.427074,-1748.144031
12246.18,4057.913303,-1748.453856
12295.08,4060.916901,-1748.159170
12355.08,4063.005924,-1748.308420
12413.54,4066.030502,-1748.116732
12473.54,4068.247318,-1748.399615
12533.54,4070.476055,-1748.324394
12592.46,4073.514462,-1748.758078
12652.46,4075.311661,-1749.004722
12712.46,4077.821732,-1748.436213
12772.01,4080.852985,-1748.325109
12832.01,4082.913876,-1748.402238
12892.01,4085.265160,-1748.049021
12952.01,4087.353706,-1748.295426
13006.75,4090.446949,-1748.943686
13066.75,4092.240334,-1748.477101
13126.75,4094.831944,-1748.116374
13186.29,4097.849846,-1748.550415
13246.29,4099.993229,-1748.842359
13306.29,4102.461338,-1747.460723
13366.29,4104.878902,-1748.434901
13421.63,4107.966423,-1748.017907
13481.63,4110.033512,-1748.485684
13537.51,4113.043308,-1748.243332
13597.51,4115.638733,-1748.535872
13651.96,4118.696213,-1748.065352
13710.24,4121.719837,-1748.122096
13769.15,4124.738216,-1748.508930
13825.92,4127.771854,-1748.178005
13884.09,4130.840778,-1748.479486
13935.04,4133.842945,-1748.589993
13986.99,4136.847496,-1748.314142
14036.10,4139.935493,-1748.479247
14084.80,4142.935753,-1748.271227
14126.30,4145.942211,-1748.240352
14173.02,4148.990631,-1748.291969
14216.51,4151.996136,-1748.444438
14259.15,4155.004025,-1748.518825
14297.77,4158.017159,-1748.259783
14336.12,4161.044598,-1748.637319
14373.24,4164.061546,-1748.590589
14408.00,4167.096138,-1748.679519
14439.56,4170.152664,-1748.003960
14473.37,4173.192024,-1747.910619
14506.50,4176.212311,-1748.378158
14539.59,4179.242611,-1748.141646
14568.30,4182.256699,-1748.202443
14598.73,4185.258865,-1748.658538
14627.49,4188.321114,-1747.757554
14656.31,4191.326618,-1747.647762
14683.01,4194.343567,-1748.146296
14709.53,4197.390556,-1748.261571
14724.68,4198.945045,-1748.670936
14724.69,4198.832989,-1716.548204
14724.72,4194.389343,-1157.021642
14724.74,4189.947605,-677.144408
14724.76,4185.912132,-305.207819
14724.79,4181.934834,-3.830741
14724.93,4178.888321,1.358807
14725.75,4175.883770,1.463357
14728.02,4172.859192,1.550574
14732.01,4169.807911,1.920067
14736.02,4166.796207,1.386332
14743.30,4163.784981,1.927862
14752.60,4160.738945,1.760514
14763.90,4157.680988,1.543503
14777.14,4154.661179,1.689790
14794.28,4151.635647,1.729161
14816.57,4148.623466,1.798314
14839.62,4145.606518,1.548031
14870.48,4142.590046,1.635687
14910.79,4139.583111,1.369466
14949.90,4136.569977,1.509969
15009.90,4133.931637,1.854115
15067.42,4130.904675,1.651716
15127.42,4129.536152,1.876901
15187.42,4127.668858,1.605541
15247.42,4126.020432,1.621749
15307.42,4124.587536,1.917820
15324.68,4124.263763,1.571683
15324.69,4124.337673,1.594435
15324.73,4121.052265,371.052563
15324.75,4116.421700,854.314446
15324.77,4111.857891,1281.938791
15324.79,4108.410835,1577.280998
15324.83,4104.927063,1811.533570
15325.29,4101.877213,1749.446034
15326.60,4098.874092,1749.927521
15329.06,4095.861435,1749.764323
15332.20,4092.824936,1750.111461
15336.42,4089.776039,1749.901772
15341.18,4086.724281,1750.025034
15347.35,4083.693981,1750.182867
15352.95,4080.673218,1750.139594
15359.78,4077.569962,1749.652982
15367.55,4074.500084,1749.978185
15375.90,4071.475506,1750.212312
15385.56,4068.473339,1750.030041
15395.68,4065.420628,1750.102520
15406.16,4062.413692,1750.014067
15419.30,4059.374332,1749.962807
15433.02,4056.326389,1750.242949
15448.53,4053.297520,1750.136614
15464.19,4050.269604,1749.518037
15484.23,4047.227383,1749.909639
15504.28,4044.219971,1749.863982
15527.68,4041.191101,1749.904394
15551.37,4038.187504,1750.070453
15579.83,4035.167694,1750.219107
15608.97,4032.148838,1750.060916
15641.15,4029.101849,1750.079989
15677.02,4026.093483,1750.018239
15711.19,4023.069859,1750.216126
15752.72,4020.034313,1750.058770
15795.69,4017.023087,1749.782562
15835.67,4014.021397,1750.269532
15882.74,4011.012077,1749.914527
15930.76,4007.931232,1749.837041
15981.87,4004.904747,1749.950051
16032.77,4001.850605,1749.956965
16083.15,3998.758554,1750.043511
16136.46,3995.701313,1750.556350
16191.99,3992.668152,1749.992967
16250.70,3989.655018,1750.460267
16310.70,3987.248182,1749.846816
16356.86,3984.199762,1749.814272
16416.86,3982.176781,1749.986172
16476.86,3979.269266,1750.033259
16536.86,3976.870060,1750.323892
16596.86,3974.350452,1749.947309
16654.54,3971.333027,1749.924421
16714.54,3969.156504,1750.052571
16774.54,3966.840744,1749.946117
16834.54,3964.517117,1750.128031
16894.54,3961.975336,1750.314713
16954.24,3958.934546,1750.089765
17014.24,3956.708908,1750.296831
17073.72,3953.707933,1749.980092
17133.72,3951.377392,1750.200748
17193.72,3948.939800,1750.045419
17253.15,3945.915461,1750.212669
17313.15,3943.357468,1750.019908
17366.45,3940.346956,1750.135660
17426.45,3937.627554,1749.480009
17480.30,3934.611082,1749.868155
17532.55,3931.596279,1749.932289
17592.55,3928.893328,1749.908447
17640.28,3925.819635,1750.215769
17691.39,3922.797203,1749.895930
17746.09,3919.771433,1750.547647
17794.56,3916.769266,1750.227451
17840.28,3913.761854,1750.099778
17884.55,3910.743713,1749.875665
17925.73,3907.732010,1750.025511
17973.50,3904.714584,1749.805689
18013.49,3901.699781,1749.939203
18057.28,3898.695469,1749.876618
18099.02,3895.689964,1750.370860
18139.70,3892.684221,1750.016689
18181.22,3889.643192,1750.161171
18218.36,3886.560917,1750.025272
18255.93,3883.532763,1750.092268
18295.85,3880.526304,1749.691010
18334.58,3877.516747,1750.064492
18371.50,3874.502182,1749.890685
18407.97,3871.497393,1749.782920
18449.57,3868.461132,1750.043273
18485.75,3865.439892,1749.936104
18522.39,3862.435341,1750.019670
18558.81,3859.431267,1750.090003
18595.05,3856.397867,1749.947429
18631.05,3853.374481,1749.809623
18667.54,3850.322723,1750.300050
18705.43,3847.320318,1750.091672
18740.79,3844.312191,1750.018477
18777.26,3841.297865,1750.081062
18813.06,3838.291407,1750.367761
18849.80,3835.275412,1749.932051
18890.31,3832.255363,1749.704957
18928.10,3829.225779,1749.654651
18966.05,3826.215744,1749.718785
19004.41,3823.200464,1749.732256
19042.18,3820.171118,1750.002503
19078.13,3817.159891,1750.217199
19117.77,3814.152956,1750.176430
19157.41,3811.128855,1749.830246
19199.80,3808.095694,1750.291228
19238.70,3805.056810,1750.014305
19280.51,3802.041531,1750.037551
19323.99,3799.003839,1749.828219
19363.89,3795.991898,1749.927759
19404.09,3792.957306,1750.300169
19446.66,3789.923906,1750.233769
19483.77,3786.913157,1749.988079
19525.60,3783.892393,1750.126362
19565.31,3780.877590,1750.016928
19602.25,3777.801991,1749.984860
19642.98,3774.785519,1750.083566
19684.08,3771.756887,1750.212669
19721.15,3768.751383,1749.688148
19760.39,3765.739441,1750.336885
19796.10,3762.720585,1749.868035
19832.65,3759.680510,1749.843001
19866.55,3756.666183,1749.820828
19902.99,3753.653288,1750.193596
19937.53,3750.593424,1749.960780
19970.26,3747.558832,1749.531746
20002.35,3744.530678,1749.920726
20038.47,3741.492510,1749.777317
20072.53,3738.483429,1749.915481
20106.56,3735.432863,1749.792814
20137.56,3732.400179,1749.941826
20173.53,3729.305744,1749.709487
20205.88,3726.301908,1750.039339
20237.30,3723.289967,1750.190020
20267.66,3720.216990,1750.039577
20297.67,3717.200279,1749.993443
20327.29,3714.124203,1749.939084
20359.71,3711.123705,1750.236630
20389.21,3708.098888,1749.922276
20421.12,3705.072403,1750.204444
20451.33,3702.071428,1750.126243
20484.04,3699.032068,1750.220299
20517.17,3696.012974,1749.813914
20554.59,3692.996025,1749.647975
20590.04,3689.965725,1749.863625
20628.81,3686.943293,1749.773622
20669.44,3683.928490,1750.052333
20707.55,3680.864334,1749.768019
20744.96,3677.840948,1749.578953
20781.68,3674.812794,1749.914050
20820.43,3671.795368,1750.106812
20857.11,3668.768883,1749.980569
20892.24,3665.746927,1750.015497
20925.37,3662.740469,1750.160694
20956.20,3659.658432,1750.135660
20987.53,3656.557083,1750.020504
21017.60,3653.501511,1750.153899
21042.54,3650.488138,1750.297546
21067.83,3647.472143,1750.175953
21091.33,3644.462347,1749.937057
21118.03,3641.407728,1749.934435
21137.42,3638.397694,1750.149369
21157.30,3635.390282,1750.054598
21174.20,3632.376432,1749.912262
21191.93,3629.364967,1750.289202
21206.95,3626.288176,1749.469876
21220.82,3623.266935,1750.092149
21235.20,3620.227337,1750.499129
21247.32,3617.209435,1750.040770
21259.00,3614.166737,1750.206590
21271.41,3611.164570,1750.066042
21281.24,3608.139515,1750.519991
21291.26,3605.137587,1749.119878
21301.35,3602.105379,1750.847220
21309.75,3599.084616,1749.751925
21319.50,3596.075773,1750.270605
21327.95,3593.074560,1750.046849
21335.53,3590.062380,1749.877095
21344.32,3587.043285,1750.628471
21352.07,3584.029675,1749.909520
21358.97,3580.972672,1749.182463
21366.85,3577.925444,1749.235749
21373.73,3574.873209,1749.818206
21380.95,3571.823597,1749.875546
21387.70,3568.793297,1751.176596
21394.26,3565.757275,1751.065969
21401.27,3562.755823,1750.601053
21407.33,3559.744835,1749.162197
21413.19,3556.731462,1750.215650
21419.40,3553.725958,1749.532461
21425.40,3550.704241,1749.843836
21430.74,3547.689676,1749.859691
21437.02,3544.667721,1750.006557
21442.52,3541.652441,1750.191092
21448.01,3538.648844,1749.849558
21453.80,3535.570860,1749.944925
21459.43,3532.555580,1749.884605
21464.87,3529.544115,1750.089049
21470.02,3526.526928,1749.881268
21475.25,3523.497820,1749.868512
21480.32,3520.482779,1750.232458
21485.38,3517.466307,1749.937415
21490.76,3514.445305,1750.057936
21495.54,3511.431694,1750.185132
21500.13,3508.404970,1749.813080
21504.56,3505.398273,1749.657273
21509.89,3502.360582,1749.958873
21514.83,3499.334574,1750.101924
21519.23,3496.288776,1749.701858
21523.87,3493.281603,1750.084877
21528.38,3490.277290,1750.011325
21532.71,3487.266779,1749.823809
21537.24,3484.213352,1750.054479
21541.77,3481.194019,1749.771833
21546.44,3478.192806,1749.881387
21550.60,3475.186586,1749.911070
21554.85,3472.186327,1749.944806
21559.15,3469.175816,1750.287533
21563.28,3466.173172,1749.834299
21567.62,3463.160515,1749.858975
21571.55,3460.157871,1750.037551
21576.02,3457.123756,1750.179172
21579.72,3454.094887,1750.009894
21583.82,3451.065302,1749.946713
21587.88,3448.058128,1750.049233
21591.94,3444.971323,1750.136495
21595.76,3441.967964,1749.895930
21599.51,3438.967228,1750.213861
21603.28,3435.950518,1750.083923
21607.06,3432.910204,1750.106335
21610.68,3429.891825,1750.111461
21614.40,3426.857948,1750.149965
21618.49,3423.794985,1749.921441
21621.79,3420.760155,1749.951124
21625.46,3417.748690,1749.948859
21629.16,3414.710999,1750.248432
21632.77,3411.673546,1749.974489
21636.26,3408.657312,1749.828100
21639.75,3405.588627,1749.675870
21643.16,3402.558327,1750.131130
21646.74,3399.511576,1750.171065
21649.80,3396.502018,1749.962807
21653.21,3393.487215,1750.181794
