time [sec],V [mV],I [mA]
8202.89,3197.175741,2.533907
8202.94,3202.736139,-546.272695
8202.95,3205.742836,-791.838169
8202.96,3208.792448,-1025.730848
8202.98,3214.183569,-1407.701969
8203.00,3218.090057,-1651.610732
8203.03,3221.462488,-1805.930734
8203.24,3224.497080,-1746.189713
8203.67,3227.509499,-1748.482466
8204.30,3230.521202,-1748.469234
8205.06,3233.523369,-1748.479366
8205.82,3236.560345,-1748.903751
8206.69,3239.615917,-1748.326778
8207.68,3242.651939,-1748.645067
8208.53,3245.657921,-1748.402119
8209.57,3248.658657,-1748.718858
8210.51,3251.702547,-1748.967886
8211.50,3254.710197,-1748.501778
8212.57,3257.784367,-1748.673558
8213.65,3260.788202,-1748.519421
8214.67,3263.792515,-1748.446941
8215.76,3266.834736,-1748.951197
8216.81,3269.853592,-1748.681784
8218.06,3272.870541,-1748.764157
8219.24,3275.895119,-1748.742580
8220.34,3278.919220,-1748.823643
8221.55,3282.036781,-1748.917580
8222.68,3285.046101,-1748.696089
8224.03,3288.103819,-1748.762965
8225.25,3291.147947,-1748.512745
8226.51,3294.188738,-1748.542428
8227.76,3297.208309,-1748.759985
8229.02,3300.223589,-1748.264194
8230.40,3303.244829,-1748.690844
8231.70,3306.260347,-1748.805404
8233.04,3309.268236,-1748.803139
8234.47,3312.306404,-1749.014139
8235.82,3315.313339,-1748.690963
8237.24,3318.336010,-1748.497248
8238.73,3321.345091,-1748.654366
8240.24,3324.349165,-1748.799562
8241.62,3327.363491,-1748.899817
8243.18,3330.442905,-1748.734713
8244.66,3333.454132,-1749.237776
8246.17,3336.465120,-1748.938322
8247.81,3339.572668,-1748.549461
8249.34,3342.591286,-1748.978853
8251.10,3345.615864,-1748.253703
8252.72,3348.617315,-1749.093175
8254.31,3351.660252,-1748.812914
8255.96,3354.696989,-1748.548627
8257.66,3357.737064,-1748.394012
8259.56,3360.876322,-1748.881578
8261.21,3363.890886,-1749.249339
8262.97,3366.946220,-1749.095917
8264.71,3369.986773,-1748.474479
8266.46,3373.023272,-1748.411179
8268.30,3376.040459,-1748.542666
8270.26,3379.059553,-1748.569369
8272.08,3382.076740,-1748.309374
8273.91,3385.082960,-1748.489857
8275.83,3388.084888,-1748.627901
8277.80,3391.115665,-1748.264194
8279.79,3394.187212,-1748.403192
8281.69,3397.207022,-1748.912215
8283.71,3400.258303,-1748.772502
8285.91,3403.297901,-1748.681664
8287.82,3406.348467,-1748.402119
8290.15,3409.352779,-1748.706341
8292.22,3412.406683,-1748.709798
8294.33,3415.446758,-1748.389244
8296.53,3418.496609,-1748.687744
8298.67,3421.506643,-1748.744965
8301.04,3424.510717,-1749.093294
8303.31,3427.580357,-1748.965740
8305.56,3430.612087,-1748.483062
8307.80,3433.645487,-1748.679638
8310.05,3436.704397,-1748.632908
8312.51,3439.746618,-1748.185515
8314.98,3442.756891,-1748.896956
8317.27,3445.757389,-1748.845935
8319.81,3448.763371,-1748.368859
8322.39,3451.796770,-1748.713374
8324.94,3454.808950,-1748.978496
8327.31,3457.811594,-1748.989344
8330.00,3460.839748,-1748.913884
8332.43,3463.846922,-1748.654723
8335.01,3466.857433,-1748.459220
8337.63,3469.901323,-1748.617530
8340.35,3472.902536,-1748.627424
8343.07,3475.906849,-1748.953104
8345.83,3478.907824,-1748.480558
8348.12,3481.958628,-1748.524785
8351.35,3485.003948,-1748.630881
8354.18,3488.004684,-1748.505116
8356.79,3491.021395,-1748.610377
8359.88,3494.036198,-1748.383641
8362.92,3497.085333,-1748.738050
8365.80,3500.167608,-1748.881817
8368.85,3503.211260,-1748.702407
8371.61,3506.250858,-1748.928070
8374.93,3509.280920,-1748.708487
8378.12,3512.313366,-1748.644829
8381.08,3515.333414,-1748.653650
8384.35,3518.369436,-1748.611927
8387.50,3521.412373,-1748.497725
8390.69,3524.461746,-1749.109745
8394.16,3527.493000,-1749.281526
8397.17,3530.521154,-1748.551369
8400.64,3533.552647,-1748.545170
8404.26,3536.562920,-1748.630524
8407.42,3539.572716,-1748.915672
8410.90,3542.636395,-1748.321176
8414.31,3545.669079,-1748.835802
8418.03,3548.684835,-1748.721361
8421.81,3551.711798,-1748.702884
8425.17,3554.748774,-1748.444557
8428.80,3557.756186,-1748.810530
8432.03,3560.767174,-1748.969078
8436.05,3563.779116,-1748.692274
8439.92,3566.784620,-1748.600841
8443.63,3569.852352,-1748.818517
8447.46,3572.860956,-1748.157382
8451.12,3575.900078,-1748.918056
8455.16,3578.922987,-1748.844504
8459.49,3581.928492,-1748.543620
8463.31,3584.982395,-1748.833179
8467.37,3588.018417,-1748.897672
8471.46,3591.018677,-1749.457955
8475.73,3594.108582,-1748.640299
8479.94,3597.115278,-1749.051332
8484.15,3600.120306,-1748.759985
8488.12,3603.162527,-1748.488784
8492.80,3606.194496,-1748.672724
8497.07,3609.217882,-1748.626351
8501.49,3612.225771,-1748.697877
8506.16,3615.231752,-1748.132110
8510.42,3618.236065,-1748.881578
8515.27,3621.238708,-1748.679399
8519.79,3624.238968,-1748.434901
8524.39,3627.251387,-1748.783588
8529.29,3630.316973,-1748.841643
8534.26,3633.328438,-1748.146176
8538.35,3636.340857,-1748.736382
8543.93,3639.348269,-1748.600245
8548.99,3642.371416,-1748.591900
8554.23,3645.408869,-1748.493075
8559.71,3648.447275,-1748.799324
8565.12,3651.506662,-1749.064803
8570.36,3654.554129,-1748.065591
8575.48,3657.604218,-1748.581529
8581.01,3660.610676,-1747.263312
8586.57,3663.646698,-1749.279857
8592.15,3666.647673,-1748.173118
8597.67,3669.676304,-1748.248339
8603.31,3672.728539,-1747.838736
8609.13,3675.746918,-1748.629212
8614.63,3678.771496,-1748.279691
8620.84,3681.818724,-1748.437524
8627.36,3684.832811,-1748.375893
8633.63,3687.870026,-1748.541713
8639.81,3690.917730,-1748.773336
8645.86,3693.922520,-1748.367906
8652.64,3696.946383,-1749.146700
8659.20,3699.947119,-1749.271989
8666.09,3702.970266,-1749.114513
8672.60,3705.972195,-1748.038530
8679.41,3708.985567,-1749.064803
8686.32,3712.006092,-1748.663664
8693.80,3715.023279,-1748.574495
8700.50,3718.032122,-1748.585224
8708.83,3721.061230,-1748.876929
8716.90,3724.165678,-1748.622417
8724.41,3727.175951,-1748.853207
8732.80,3730.178356,-1748.746037
8741.71,3733.186483,-1748.639941
8750.11,3736.213923,-1748.484373
8759.56,3739.214182,-1748.918295
8768.81,3742.233276,-1749.070287
8779.69,3745.279551,-1748.801708
8790.19,3748.299599,-1748.861909
8800.92,3751.332521,-1748.679996
8813.82,3754.343033,-1748.545766
8826.88,3757.349014,-1748.456120
8841.10,3760.380745,-1748.561382
8858.96,3763.447285,-1748.398423
8878.73,3766.461611,-1748.499870
8902.08,3769.468546,-1748.525620
8924.63,3772.498846,-1748.579860
8953.55,3775.529623,-1748.667359
8984.48,3778.533459,-1748.956561
9015.22,3781.643152,-1748.722434
9049.53,3784.697294,-1749.391198
9083.50,3787.710428,-1748.482108
9118.56,3790.760517,-1748.504043
9153.40,3793.777466,-1749.218225
9187.26,3796.820879,-1748.844743
9223.80,3799.890757,-1748.635173
9259.99,3802.913189,-1748.669386
9296.88,3805.932999,-1748.605728
9330.97,3808.956623,-1748.945117
9366.97,3811.980486,-1749.172688
9403.06,3815.041780,-1748.847961
9437.26,3818.044186,-1749.019504
9471.51,3821.050167,-1747.591257
9502.80,3824.095011,-1748.562098
9537.76,3827.102184,-1748.510242
9569.12,3830.110788,-1748.758793
9601.49,3833.115816,-1748.473763
9633.71,3836.135626,-1748.632193
9666.03,3839.137793,-1749.342561
9696.85,3842.186213,-1748.679399
9728.07,3845.191240,-1748.477459
9756.57,3848.230124,-1748.951077
9785.09,3851.271868,-1748.505354
9814.22,3854.290962,-1748.914957
9844.70,3857.323647,-1748.715639
9874.25,3860.335350,-1748.535275
9903.05,3863.396883,-1748.751044
9932.15,3866.405010,-1749.322772
9959.93,3869.427204,-1749.014258
9988.93,3872.475624,-1748.845696
10017.17,3875.519276,-1748.700023
10047.49,3878.540993,-1749.178767
10076.33,3881.545544,-1748.621464
10106.46,3884.570837,-1748.855114
10135.76,3887.571335,-1748.564124
10167.85,3890.590906,-1749.549150
10197.74,3893.615723,-1749.144197
10228.28,3896.620989,-1748.604774
10262.59,3899.691343,-1748.826981
10294.22,3902.705908,-1748.418212
10325.42,3905.726433,-1749.079466
10357.68,3908.740282,-1748.938322
10389.07,3911.781311,-1748.639107
10420.03,3914.788485,-1748.479962
10455.84,3917.816162,-1748.233914
10488.72,3920.820951,-1748.089433
10522.73,3923.828840,-1748.963237
10554.73,3926.833630,-1748.343349
10586.80,3929.839611,-1748.083115
10620.95,3932.865858,-1747.729540
10656.11,3935.867071,-1748.436570
10690.47,3938.874006,-1748.566031
10725.91,3941.910028,-1748.921633
10762.99,3944.924355,-1748.928308
10798.95,3947.969437,-1748.933792
10833.24,3950.979233,-1748.828053
10868.35,3954.023361,-1748.322725
10906.58,3957.044840,-1750.187039
10945.16,3960.058928,-1749.410391
10982.13,3963.086367,-1748.680472
11021.46,3966.098070,-1748.491883
11059.12,3969.101667,-1748.515487
11100.02,3972.129107,-1748.188972
11137.52,3975.144148,-1749.558210
11176.51,3978.156567,-1748.608828
11214.42,3981.170654,-1748.360276
11252.21,3984.223127,-1748.920679
11291.49,3987.224817,-1748.833179
11328.66,3990.265608,-1748.860121
11366.33,3993.268728,-1748.884439
11403.66,3996.336699,-1748.665571
11440.39,3999.360561,-1748.430252
11477.04,4002.364159,-1748.766184
11512.83,4005.389690,-1749.027133
11549.76,4008.398056,-1749.011040
11587.37,4011.404037,-1749.122381
11626.10,4014.441967,-1748.791575
11665.73,4017.451763,-1748.586059
11703.92,4020.454884,-1748.771787
11743.51,4023.561478,-1748.440027
11784.86,4026.563168,-1748.743176
11826.33,4029.585838,-1747.900367
11869.49,4032.592297,-1748.710990
11912.36,4035.644531,-1748.593569
11959.70,4038.678169,-1748.732805
12010.38,4041.720390,-1748.716950
12060.19,4044.767857,-1748.384595
12111.33,4047.772408,-1748.604178
12170.77,4050.783157,-1748.695850
12228.23,4053.810596,-1748.653650
12288.23,4056.166172,-1748.730779
12340.00,4059.198856,-1748.529553
12400.00,4061.494827,-1748.692751
12460.00,4064.244747,-1748.932123
12520.00,4066.790581,-1748.819709
12580.00,4069.124699,-1748.495221
12640.00,4071.249008,-1748.561621
12700.00,4073.754311,-1748.332858
12760.00,4076.339245,-1748.415709
12820.00,4078.520775,-1748.959064
12880.00,4081.171036,-1749.021173
12940.00,4083.302498,-1748.988628
13000.00,4085.667610,-1748.813391
13060.00,4088.096619,-1748.596787
13120.00,4090.497494,-1748.746753
13180.00,4092.900753,-1747.990012
13240.00,4095.538616,-1748.440266
13300.00,4098.003864,-1748.868585
13360.00,4100.376606,-1748.763919
13420.00,4103.326321,-1747.923136
13480.00,4105.662346,-1748.610497
13539.82,4108.685970,-1748.500943
13599.82,4110.970497,-1748.448610
13656.70,4113.982201,-1748.461723
13716.70,4116.352558,-1749.870658
13772.64,4119.363308,-1747.768641
13832.34,4122.382641,-1748.830199
13886.34,4125.383377,-1748.984814
13943.65,4128.434181,-1748.856664
13998.23,4131.447792,-1748.561859
14053.73,4134.463787,-1748.598933
14099.60,4137.492657,-1748.789430
14154.51,4140.501499,-1748.760581
14199.20,4143.505573,-1748.254418
14242.21,4146.528244,-1748.119473
14288.99,4149.574757,-1748.980403
14332.40,4152.603149,-1748.268366
14372.63,4155.614376,-1747.625232
14410.34,4158.665180,-1748.760939
14451.20,4161.675930,-1749.353051
14490.21,4164.686680,-1748.546720
14523.89,4167.704582,-1748.817682
14556.86,4170.739174,-1748.969793
14587.80,4173.767567,-1748.911738
14622.89,4176.798344,-1748.512626
14654.27,4179.820061,-1749.095917
14683.05,4182.857513,-1748.838067
14715.76,4185.871124,-1747.838259
14742.75,4188.877583,-1748.647094
14771.16,4191.883564,-1748.710036
14797.94,4194.896221,-1749.154329
14824.06,4197.916508,-1747.592449
14833.87,4198.754311,-1747.807026
14833.88,4198.490143,-1715.649366
14833.91,4193.634510,-1155.742645
14833.93,4189.059258,-675.537407
14833.95,4185.150623,-303.552896
14833.98,4181.424618,-2.651081
14834.21,4178.339481,1.110527
14835.38,4175.254345,2.279373
14838.04,4172.188282,2.321800
14842.77,4169.177532,2.647808
14847.70,4166.166782,2.839020
14855.64,4163.132668,2.905242
14865.47,4160.089493,2.281113
14878.60,4157.053471,2.988569
14893.77,4153.963089,2.571153
14914.58,4150.914669,2.879221
14940.09,4147.850513,2.859995
14973.36,4144.810677,3.078929
15010.81,4141.810417,2.793167
15059.53,4138.804913,2.882001
15114.55,4135.801315,2.445629
15174.55,4133.721352,2.855161
15234.55,4131.732941,2.104946
15294.55,4130.135059,2.775276
15354.55,4128.132820,2.007651
15414.55,4126.972198,2.746195
15433.87,4126.748562,3.099365
15433.88,4126.778126,3.230453
15433.92,4123.755455,369.503766
15433.94,4119.228363,852.311492
15433.96,4114.652157,1280.502677
15433.98,4111.063004,1576.555371
15434.01,4107.933044,1786.256790
15434.41,4104.916573,1749.656439
15435.78,4101.840973,1749.536753
15438.17,4098.817348,1750.213742
15441.66,4095.787525,1749.741673
15445.72,4092.787266,1750.889540
15450.52,4089.777470,1750.366330
15455.80,4086.721420,1750.586033
15462.03,4083.696842,1749.625802
15468.91,4080.666542,1750.075579
15476.45,4077.630997,1750.259995
15484.87,4074.554920,1750.093579
15494.04,4071.552753,1750.550985
15503.68,4068.550110,1749.850750
15514.81,4065.515518,1749.864578
15525.94,4062.509537,1750.436664
15539.21,4059.489250,1750.148535
15552.81,4056.409359,1750.638247
15569.00,4053.328037,1749.879837
15586.95,4050.303936,1750.318408
15605.70,4047.273636,1750.229001
15625.33,4044.164181,1749.945879
15649.69,4041.143894,1750.554204
15672.64,4038.096428,1750.890851
15702.58,4035.068512,1750.954390
15731.19,4032.028675,1751.535892
15761.07,4028.986454,1751.538277
15797.58,4025.962353,1750.120044
15833.21,4022.932053,1749.854445
15878.02,4019.918442,1749.989271
15919.10,4016.911030,1750.085235
15961.86,4013.886452,1749.956131
16007.92,4010.841370,1750.216961
16056.89,4007.819653,1749.641418
16107.48,4004.818916,1750.176191
16157.99,4001.788139,1749.803901
16213.16,3998.695850,1750.232697
16269.05,3995.669603,1750.384450
16327.87,3992.622375,1750.355840
16387.87,3989.787817,1750.389695
16446.58,3986.772537,1750.245452
16506.58,3984.537840,1749.998093
16559.07,3981.526852,1750.133753
16619.07,3979.178905,1750.586390
16679.07,3976.734161,1750.200391
16739.07,3974.165440,1750.857353
16799.07,3971.938848,1750.478745
16859.07,3969.738007,1750.091314
16917.28,3966.733694,1750.326157
16977.28,3964.627743,1750.224471
17037.28,3962.216854,1749.754906
17094.71,3959.187269,1750.385523
17154.71,3957.331419,1749.901295
17214.71,3954.877138,1750.367403
17274.71,3952.113867,1750.147700
17334.71,3949.738026,1750.378489
17393.03,3946.680546,1749.872804
17453.03,3944.261551,1749.965549
17507.94,3941.181183,1750.026464
17567.94,3938.594341,1750.102282
17627.94,3935.873032,1749.735832
17678.59,3932.862043,1749.985933
17738.59,3930.119753,1750.471234
17787.13,3927.113533,1750.229955
17842.04,3924.110651,1750.316262
17892.77,3921.100616,1750.394702
17939.96,3918.040991,1750.330210
17988.01,3915.028572,1750.214458
18036.21,3912.005901,1750.416398
18082.32,3908.966541,1749.444008
18128.45,3905.951977,1749.417782
18167.80,3902.908802,1750.209332
18212.53,3899.895191,1750.376821
18253.04,3896.862984,1750.160933
18294.53,3893.834591,1750.144839
18333.26,3890.807390,1750.498414
18373.74,3887.792110,1750.713110
18411.85,3884.751797,1750.223994
18450.42,3881.745338,1749.885678
18487.93,3878.710747,1750.132442
18521.07,3875.705957,1749.930620
18562.83,3872.703552,1750.049114
18599.96,3869.667768,1749.928713
18638.15,3866.666317,1750.158072
18677.17,3863.662481,1750.104427
18712.77,3860.630751,1750.165820
18747.28,3857.614517,1749.651551
18784.84,3854.598284,1750.240922
18822.59,3851.582527,1749.920726
18859.87,3848.531723,1750.340462
18896.16,3845.519781,1750.665545
18932.09,3842.470884,1750.173688
18970.08,3839.431047,1750.373960
19009.13,3836.394548,1750.038624
19046.87,3833.371639,1749.685764
19084.87,3830.370188,1750.209212
19123.93,3827.347994,1750.223875
19165.06,3824.329138,1750.467420
19203.17,3821.300268,1750.477433
19242.75,3818.243265,1750.886917
19281.49,3815.203667,1750.242949
19320.57,3812.169790,1750.079513
19363.55,3809.149504,1749.916077
19406.37,3806.132317,1749.717474
19448.12,3803.083181,1749.784946
19489.78,3800.030947,1750.007272
19530.01,3797.018766,1749.365091
19574.26,3793.928862,1750.290751
19616.29,3790.915489,1750.077486
19659.99,3787.904978,1750.373602
19699.86,3784.899235,1750.015974
19743.39,3781.896114,1749.697089
19783.29,3778.891802,1750.280857
19822.95,3775.886536,1750.267029
19860.09,3772.870541,1750.130415
19898.29,3769.869566,1750.266790
19939.72,3766.843081,1749.958038
19975.87,3763.799906,1749.686480
20011.41,3760.766029,1749.606848
20050.13,3757.748127,1750.235558
20086.11,3754.693747,1750.265837
20119.61,3751.684427,1750.800133
20156.23,3748.677969,1749.878764
20190.72,3745.655775,1750.342727
20227.12,3742.653370,1750.183225
20260.39,3739.649296,1750.149965
20293.08,3736.640692,1749.784946
20328.26,3733.627558,1750.008225
20359.51,3730.606079,1749.902606
20390.44,3727.600098,1749.969482
20422.47,3724.565029,1750.328898
20454.21,3721.560001,1750.241399
20485.87,3718.531847,1750.334620
20516.41,3715.515375,1750.353456
20546.86,3712.466717,1750.414371
20579.27,3709.461689,1750.252128
20611.01,3706.437826,1749.856830
20641.15,3703.371048,1749.937773
20678.18,3700.363874,1750.081420
20710.61,3697.335243,1749.963641
20747.04,3694.270849,1749.986172
20783.88,3691.249371,1750.388741
20823.49,3688.238144,1750.105143
20862.05,3685.231686,1750.226974
20900.83,3682.227135,1749.829412
20937.94,3679.219246,1750.446439
20978.05,3676.146269,1750.329733
21018.12,3673.132181,1750.235915
21053.62,3670.113802,1750.182986
21088.36,3667.025089,1750.454307
21121.36,3664.018393,1749.965549
21154.34,3660.994291,1750.220060
21185.35,3657.974958,1750.308633
21215.06,3654.955387,1750.196218
21241.30,3651.952744,1750.446439
21267.53,3648.864985,1751.011252
21291.71,3645.849943,1750.939012
21316.98,3642.838001,1750.217438
21337.46,3639.831066,1750.120640
21357.49,3636.823416,1750.296354
21374.45,3633.823156,1749.789357
21391.31,3630.756855,1750.089645
21406.87,3627.731323,1750.163436
21420.26,3624.714136,1750.105977
21433.86,3621.693850,1750.427246
21446.33,3618.663549,1750.143290
21458.01,3615.616798,1750.144720
21469.70,3612.581015,1750.282526
21480.54,3609.572887,1750.296116
21490.35,3606.549501,1749.870539
21500.57,3603.514671,1750.169396
21509.80,3600.494623,1750.293374
21518.54,3597.483635,1749.998927
21526.37,3594.483376,1750.291586
21534.96,3591.460228,1749.755740
21543.04,3588.404417,1749.892831
21550.22,3585.376740,1750.342250
21557.89,3582.352400,1750.322104
21565.27,3579.335690,1750.158668
21572.71,3576.296806,1750.163078
21579.51,3573.281527,1750.438929
21586.44,3570.256710,1750.548840
21592.86,3567.198038,1750.218868
21599.52,3564.171314,1750.010848
21605.59,3561.161041,1750.597239
21611.94,3558.141947,1750.005603
21618.33,3555.105209,1750.068188
21623.84,3552.092075,1750.143409
21629.55,3549.087286,1749.836087
21635.76,3546.030045,1750.172019
21641.54,3543.008804,1750.352383
21646.87,3540.003300,1750.097871
21652.73,3536.990166,1750.048876
21657.81,3533.926487,1750.221848
21663.49,3530.923367,1750.219822
21668.61,3527.870893,1750.100732
21674.04,3524.818897,1750.187755
21679.32,3521.752357,1750.038624
21684.18,3518.735886,1750.199199
21689.60,3515.721560,1750.082731
21694.61,3512.687206,1750.210166
21699.20,3509.675980,1750.176787
21704.20,3506.664515,1749.771476
21708.90,3503.635406,1750.237703
21713.46,3500.548601,1750.077128
21718.64,3497.529984,1750.035763
21722.51,3494.520426,1749.984980
21727.67,3491.495848,1749.739408
21732.07,3488.492489,1750.267744
21736.33,3485.481739,1750.341892
21741.16,3482.434750,1750.316143
21745.75,3479.410887,1750.201583
21749.87,3476.399899,1750.189781
21754.25,3473.376274,1750.384331
21758.60,3470.341206,1750.399470
21762.38,3467.312574,1750.030994
21767.09,3464.288235,1750.198841
21770.64,3461.286306,1750.123978
21775.15,3458.271503,1750.130773
21779.08,3455.242872,1750.320077
21783.20,3452.198982,1750.516653
21787.02,3449.192286,1750.586510
21791.15,3446.177483,1750.472188
21794.91,3443.148375,1749.709129
21798.82,3440.137148,1750.259757
21802.56,3437.114239,1750.075936
21806.24,3434.101105,1750.135660
21809.80,3431.088686,1750.220180
21813.71,3428.079367,1750.195265
21817.67,3425.077677,1749.547005
21821.08,3422.064781,1750.312209
21824.63,3419.064522,1750.474930
21828.04,3416.058064,1750.615835
21831.61,3413.055182,1750.472069
21835.14,3410.044670,1750.356436
21838.45,3406.997204,1750.470519
21841.87,3403.990984,1749.994159
21845.33,3400.974751,1750.110984
