time [sec],V [mV],I [mA]
8190.17,3198.835135,2.742168
8190.22,3204.440117,-547.586501
8190.24,3210.330963,-1026.836872
8190.26,3215.697289,-1408.324242
8190.28,3219.727516,-1651.883006
8190.31,3223.159313,-1805.554390
8190.51,3226.254225,-1745.997190
8191.02,3229.300499,-1748.207808
8191.66,3232.319593,-1748.605609
8192.50,3235.421896,-1748.355269
8193.35,3238.440037,-1748.647690
8194.12,3241.539001,-1748.048544
8195.07,3244.572401,-1748.342872
8196.01,3247.627497,-1748.531103
8197.03,3250.648022,-1748.762608
8198.05,3253.656626,-1748.158932
8198.99,3256.754637,-1748.686314
8200.07,3259.774685,-1747.887850
8201.12,3262.798548,-1748.683691
8202.12,3265.820503,-1748.720646
8203.28,3268.855572,-1748.594642
8204.41,3271.862745,-1748.862982
8205.47,3274.907112,-1748.639345
8206.66,3277.932882,-1748.456717
8207.80,3280.943871,-1748.523712
8209.05,3283.944368,-1748.836398
8210.25,3286.954165,-1748.751402
8211.44,3289.980888,-1748.221278
8212.72,3292.988300,-1748.488307
8213.90,3296.002865,-1748.648882
8215.19,3299.007416,-1748.464823
8216.60,3302.035093,-1748.540163
8217.89,3305.041552,-1748.357654
8219.23,3308.079004,-1748.354554
8220.61,3311.102152,-1748.849988
8221.93,3314.155817,-1748.628974
8223.35,3317.200184,-1748.551965
8224.96,3320.211649,-1748.764873
8226.32,3323.250055,-1748.347878
8227.80,3326.288462,-1748.612761
8229.21,3329.321146,-1748.626947
8230.74,3332.357407,-1748.754144
8232.23,3335.402012,-1748.660922
8233.80,3338.426113,-1748.235703
8235.42,3341.450453,-1748.445630
8236.84,3344.465017,-1748.556614
8238.54,3347.469807,-1748.448968
8240.32,3350.517035,-1748.448849
8241.78,3353.556395,-1748.774409
8243.57,3356.565714,-1748.732209
8245.17,3359.677553,-1748.922229
8246.99,3362.722158,-1748.572230
8248.76,3365.735054,-1748.692036
8250.54,3368.781805,-1748.330474
8252.35,3371.796370,-1748.738885
8254.12,3374.802589,-1748.538375
8255.85,3377.852440,-1748.496175
8257.88,3380.883455,-1748.625159
8259.57,3383.954287,-1748.712420
8261.68,3386.976004,-1748.603463
8263.35,3390.055656,-1748.739004
8265.39,3393.080473,-1748.496056
8267.41,3396.122456,-1748.322964
8269.62,3399.141073,-1748.270631
8271.66,3402.178288,-1748.548150
8273.44,3405.258417,-1748.540044
8275.47,3408.278465,-1748.594880
8277.80,3411.317348,-1748.708606
8280.00,3414.334536,-1748.500109
8282.11,3417.357683,-1748.677611
8284.29,3420.370340,-1748.845816
8286.43,3423.415422,-1748.742104
8288.69,3426.437855,-1748.858213
8291.04,3429.461241,-1748.453140
8293.38,3432.526112,-1748.688340
8295.73,3435.541630,-1748.891830
8297.91,3438.554525,-1748.552203
8300.25,3441.554546,-1748.671293
8302.53,3444.655418,-1748.646617
8305.19,3447.673559,-1748.809338
8307.64,3450.690746,-1749.136686
8310.37,3453.703403,-1749.137282
8312.62,3456.770658,-1748.985648
8315.24,3459.834814,-1748.235583
8317.71,3462.846994,-1748.849988
8320.18,3465.865612,-1748.647928
8322.91,3468.908310,-1748.992562
8325.86,3471.960545,-1748.938560
8328.25,3474.962950,-1747.942567
8331.04,3477.994442,-1748.790145
8333.68,3481.022596,-1748.335242
8336.64,3484.054089,-1748.056293
8339.43,3487.106562,-1748.633504
8342.24,3490.108728,-1748.440623
8345.13,3493.109941,-1748.638034
8348.02,3496.112347,-1748.740435
8350.74,3499.119282,-1748.655319
8353.81,3502.232075,-1748.849630
8356.90,3505.269766,-1748.805404
8360.17,3508.275270,-1748.667955
8362.97,3511.287928,-1748.563409
8365.99,3514.333010,-1748.761654
8369.25,3517.355919,-1748.168945
8372.28,3520.392656,-1749.225974
8375.50,3523.469448,-1748.533607
8378.65,3526.479721,-1748.917937
8382.18,3529.515028,-1747.796178
8385.55,3532.565117,-1747.984052
8388.89,3535.618305,-1748.562813
8392.17,3538.621187,-1748.192549
8395.84,3541.699648,-1748.648524
8399.05,3544.722795,-1748.795152
8402.80,3547.728539,-1748.449445
8406.34,3550.739050,-1748.009324
8409.65,3553.757906,-1748.629928
8412.99,3556.771994,-1748.091221
8416.99,3559.776068,-1748.345733
8420.39,3562.782288,-1748.556972
8424.48,3565.797329,-1748.287678
8428.30,3568.887472,-1748.568416
8432.03,3571.889877,-1748.950481
8435.71,3574.900389,-1748.476386
8439.76,3577.923059,-1748.523116
8443.54,3580.933094,-1748.885870
8447.58,3583.937407,-1748.482943
8451.93,3587.074041,-1748.701096
8455.89,3590.154171,-1748.612165
8459.98,3593.156099,-1748.772383
8464.19,3596.191168,-1748.715281
8468.90,3599.257231,-1748.866916
8472.88,3602.280855,-1748.829126
8477.11,3605.301857,-1748.632669
8481.83,3608.306408,-1748.920083
8485.99,3611.371994,-1748.712897
8490.77,3614.382982,-1748.567104
8495.13,3617.393970,-1748.324037
8499.31,3620.412827,-1748.766661
8504.05,3623.453617,-1748.441577
8508.70,3626.459837,-1748.080015
8513.11,3629.473686,-1748.379230
8518.27,3632.529736,-1748.337984
8523.68,3635.602236,-1748.878837
8528.42,3638.632536,-1748.650312
8533.43,3641.665936,-1748.539329
8538.63,3644.754171,-1748.536825
8544.31,3647.821665,-1748.558760
8549.38,3650.843620,-1748.545289
8554.53,3653.901815,-1748.839736
8560.38,3656.935692,-1749.337077
8565.61,3659.940243,-1748.611808
8570.94,3662.960529,-1748.340249
8576.79,3665.975094,-1748.949051
8581.67,3668.976784,-1749.097943
8587.73,3671.992064,-1748.072267
8593.40,3675.031662,-1749.093890
8599.43,3678.043127,-1748.833179
8604.92,3681.049347,-1748.372912
8611.34,3684.078932,-1748.661041
8617.61,3687.149525,-1748.280525
8624.31,3690.198183,-1748.422027
8630.05,3693.198919,-1748.513937
8636.48,3696.254253,-1748.612881
8642.96,3699.262142,-1748.495817
8649.60,3702.327490,-1748.853326
8656.87,3705.344677,-1748.685479
8663.94,3708.381414,-1748.552561
8670.77,3711.458206,-1748.215914
8677.90,3714.478731,-1748.465538
8685.24,3717.568159,-1748.549342
8693.01,3720.569849,-1748.571634
8700.91,3723.607540,-1748.627305
8708.59,3726.626635,-1748.679757
8716.70,3729.629040,-1748.818755
8725.32,3732.630968,-1748.700619
8733.89,3735.665083,-1748.527646
8742.13,3738.694191,-1748.397470
8752.14,3741.747379,-1748.510361
8762.36,3744.793653,-1748.829246
8773.39,3747.820854,-1747.952342
8783.79,3750.840187,-1748.519421
8795.42,3753.852606,-1749.058723
8808.44,3756.908417,-1748.777747
8824.06,3759.959221,-1748.990655
8840.17,3762.970209,-1748.714805
8858.51,3765.975952,-1748.327374
8879.77,3768.996239,-1748.161554
8902.94,3772.007227,-1747.968674
8930.19,3775.031805,-1748.548269
8960.18,3778.072834,-1748.859167
8992.06,3781.078577,-1748.075128
9022.21,3784.079313,-1748.579264
9055.19,3787.080526,-1748.576403
9089.70,3790.099382,-1748.626590
9125.47,3793.117046,-1749.236822
9159.88,3796.121836,-1748.286009
9195.01,3799.245834,-1748.702884
9232.53,3802.249908,-1749.032497
9266.05,3805.267096,-1748.856783
9302.47,3808.270931,-1748.703957
9337.99,3811.271667,-1748.087287
9368.20,3814.330816,-1748.409152
9407.80,3817.428112,-1748.871922
9439.65,3820.437193,-1748.235464
9471.86,3823.460579,-1748.629689
9507.97,3826.469898,-1747.654200
9541.09,3829.475164,-1748.679280
9571.86,3832.520485,-1748.682141
9604.84,3835.554361,-1748.512506
9636.49,3838.589430,-1749.120235
9668.03,3841.592073,-1748.302579
9698.77,3844.596386,-1749.110818
9728.19,3847.630978,-1748.644352
9757.79,3850.641966,-1748.337746
9786.58,3853.659630,-1748.423576
9815.68,3856.680632,-1748.793006
9844.77,3859.693766,-1747.995853
9871.20,3862.735033,-1748.321772
9900.77,3865.736008,-1748.317719
9929.76,3868.752241,-1748.358250
9957.89,3871.775150,-1748.347402
9988.49,3874.787092,-1748.483539
10017.83,3877.794266,-1748.938918
10045.05,3880.805254,-1748.612523
10074.80,3883.841515,-1749.127507
10105.64,3886.893988,-1748.498440
10135.20,3889.941454,-1748.314738
10166.60,3892.968893,-1748.512506
10197.74,3895.981312,-1748.754025
10228.97,3899.041891,-1748.869419
10262.38,3902.085543,-1748.595238
10292.40,3905.112267,-1748.636723
10322.31,3908.148766,-1748.548508
10357.93,3911.172867,-1748.342872
10388.17,3914.244890,-1748.363495
10422.98,3917.271137,-1748.513699
10455.47,3920.291424,-1748.276353
10488.42,3923.318148,-1748.356700
10521.50,3926.351547,-1747.970104
10554.05,3929.353476,-1749.013543
10589.88,3932.371616,-1748.689532
10622.85,3935.389757,-1748.537183
10657.25,3938.425779,-1748.296976
10692.98,3941.464186,-1748.790383
10729.37,3944.471359,-1748.379111
10764.40,3947.497606,-1748.378158
10798.84,3950.500011,-1748.833537
10836.19,3953.506470,-1748.418808
10872.76,3956.551313,-1749.059200
10905.57,3959.553003,-1748.326898
10945.75,3962.556839,-1747.887611
10982.11,3965.558290,-1748.687744
11022.39,3968.601942,-1748.582721
11061.12,3971.619844,-1748.431444
11098.54,3974.622011,-1748.864532
11137.08,3977.640152,-1749.011278
11177.69,3980.647326,-1748.574376
11215.18,3983.710527,-1748.319983
11251.85,3986.713409,-1748.175263
11290.46,3989.724398,-1748.801947
11326.88,3992.728233,-1748.533607
11362.74,3995.745897,-1748.533726
11401.73,3998.761177,-1748.450637
11437.99,4001.777649,-1748.765588
11475.30,4004.811764,-1748.644471
11515.30,4007.830620,-1748.514652
11549.82,4010.835648,-1748.549938
11589.54,4013.843536,-1748.585582
11626.82,4016.852379,-1748.072028
11662.95,4019.910336,-1748.133302
11701.67,4022.913933,-1748.858690
11745.34,4025.972843,-1748.695254
11786.44,4029.011726,-1748.418093
11830.64,4032.048225,-1748.653054
11873.64,4035.068035,-1748.525500
11921.10,4038.094997,-1748.520374
11969.89,4041.105747,-1748.291373
12015.60,4044.118404,-1748.420596
12071.06,4047.153473,-1748.336315
12125.95,4050.164223,-1749.033093
12181.09,4053.195000,-1748.452425
12241.09,4055.523396,-1749.099612
12295.02,4058.538914,-1748.801231
12355.02,4060.883522,-1749.034762
12411.26,4063.901901,-1748.816490
12471.26,4066.129208,-1748.630524
12531.26,4068.907738,-1748.326063
12591.26,4070.610523,-1748.337507
12644.70,4073.617935,-1748.683095
12704.70,4075.761318,-1748.969555
12764.70,4078.116894,-1749.093175
12824.70,4080.617428,-1748.886466
12884.70,4082.952023,-1748.597264
12944.70,4085.413933,-1748.692513
13004.70,4087.267399,-1748.887539
13059.48,4090.298176,-1749.002814
13119.48,4092.679501,-1748.653412
13179.48,4095.101833,-1748.315930
13239.48,4097.385883,-1748.657465
13299.48,4099.850655,-1748.526216
13359.48,4102.010727,-1748.810291
13414.34,4105.032444,-1748.642921
13474.34,4107.468128,-1748.334050
13534.34,4110.304356,-1748.930097
13594.34,4112.710953,-1748.831391
13648.68,4115.721226,-1748.658895
13707.14,4118.778229,-1748.739719
13767.14,4121.300220,-1749.036312
13816.61,4124.335289,-1748.419285
13876.61,4126.595020,-1748.784065
13918.79,4129.625797,-1748.802066
13973.10,4132.694244,-1748.272061
14028.94,4135.707855,-1748.517990
14076.89,4138.727188,-1748.547077
14126.05,4141.768932,-1748.832345
14170.01,4144.855976,-1748.431206
14217.87,4147.891045,-1748.513460
14258.58,4150.921822,-1748.390079
14302.12,4153.966904,-1748.106718
14346.06,4157.029152,-1748.283029
14386.24,4160.039902,-1748.499990
14424.64,4163.051128,-1748.921871
14461.96,4166.067123,-1748.543978
14491.86,4169.101238,-1748.632431
14526.59,4172.103882,-1748.542666
14558.72,4175.130844,-1748.825431
14591.90,4178.213596,-1748.906851
14622.82,4181.251049,-1748.966098
14652.11,4184.255600,-1748.338103
14684.03,4187.270164,-1748.619318
14710.81,4190.275669,-1748.543382
14739.08,4193.349361,-1748.487592
14765.12,4196.358204,-1748.842478
14786.62,4198.830605,-1748.640180
14786.63,4198.607445,-1716.610312
14786.66,4193.964481,-1156.723976
14786.68,4189.306736,-676.488578
14786.70,4185.130596,-304.237396
14786.72,4182.097912,-72.269768
14786.77,4179.067135,80.256641
14787.61,4176.053047,3.486180
14789.74,4173.006535,2.750311
14793.48,4169.981956,2.359346
14798.18,4166.970253,2.281390
14804.93,4163.962364,2.343302
14813.68,4160.956383,2.176345
14825.29,4157.903671,2.302299
14838.28,4154.902935,2.522279
14856.68,4151.889801,2.681119
14878.91,4148.881435,2.788390
14906.76,4145.825386,2.897408
14939.44,4142.825127,2.792353
14979.97,4139.819622,2.687588
15025.29,4136.796951,2.966454
15085.29,4134.211063,2.892659
15145.29,4132.193089,2.329936
15205.29,4129.884243,2.764867
15265.29,4128.156185,2.172432
15325.29,4126.574039,2.601939
15385.29,4125.465870,2.408827
15386.62,4125.657558,2.747685
15386.63,4125.701427,2.866391
15386.68,4120.470047,610.355854
15386.70,4115.635395,1082.593203
15386.72,4111.608505,1447.419643
15386.75,4107.665539,1742.783546
15386.92,4104.652405,1746.050954
15387.76,4101.620197,1750.133276
15389.79,4098.582745,1749.532819
15392.89,4095.580578,1750.526667
15396.70,4092.578411,1750.118136
15400.99,4089.528084,1750.213623
15406.29,4086.524963,1749.856830
15412.48,4083.479404,1750.669479
15419.34,4080.476761,1750.148296
15425.30,4077.452183,1750.176907
15434.03,4074.416161,1749.630570
15442.81,4071.403027,1750.181675
15451.95,4068.387508,1749.825358
15463.24,4065.386295,1750.136614
15475.60,4062.380791,1750.248313
15488.70,4059.336185,1750.455260
15501.78,4056.326866,1749.760747
15516.79,4053.316593,1750.047803
15534.02,4050.291538,1750.212193
15553.23,4047.253132,1749.449611
15573.05,4044.229984,1750.144839
15595.60,4041.124821,1750.010133
15619.87,4038.115978,1749.745250
15647.06,4035.115242,1750.124812
15675.99,4032.099724,1750.084877
15707.82,4029.081821,1749.627113
15742.50,4026.053429,1750.217676
15780.74,4022.949696,1750.078440
15822.22,4019.946575,1749.935389
15861.28,4016.936779,1750.160456
15906.41,4013.918400,1750.415325
15954.71,4010.854244,1750.083685
16003.20,4007.825851,1750.289798
16054.16,4004.788399,1750.018239
16105.90,4001.788139,1750.189900
16155.39,3998.769283,1750.029445
16212.02,3995.712996,1750.584602
16266.37,3992.703438,1750.089049
16326.37,3990.257740,1750.693560
16378.82,3987.241507,1750.088215
16438.82,3984.786749,1749.633908
16493.03,3981.768131,1750.165462
16553.03,3979.581118,1750.699282
16609.04,3976.580381,1750.079393
16669.04,3974.503279,1750.030756
16729.04,3972.023487,1749.637842
16789.04,3969.692230,1749.982834
16849.04,3967.256069,1750.542164
16909.04,3964.381933,1749.934435
16969.04,3962.471485,1750.479698
17027.40,3959.452152,1750.361681
17087.40,3957.016230,1749.877691
17147.40,3954.889297,1750.113010
17207.40,3952.273607,1750.428796
17267.40,3949.796915,1749.969006
17325.00,3946.793318,1750.174284
17385.00,3944.344044,1750.105023
17436.79,3941.290617,1750.064969
17496.79,3938.918591,1749.835610
17548.13,3935.902834,1750.227571
17607.97,3932.889700,1749.770522
17662.94,3929.809809,1750.008941
17717.81,3926.802635,1750.014424
17773.29,3923.794746,1750.089049
17826.02,3920.794725,1750.048041
17872.48,3917.776823,1750.152707
17923.55,3914.769888,1750.147700
17965.16,3911.759138,1749.965429
18014.57,3908.725500,1749.896884
18056.73,3905.719280,1750.195980
18101.26,3902.713537,1750.234365
18142.03,3899.685144,1750.646830
18184.71,3896.679640,1749.607682
18222.80,3893.653393,1750.370860
18263.91,3890.626192,1751.124859
18303.50,3887.614250,1750.084519
18342.21,3884.576797,1750.326991
18381.38,3881.546259,1749.944448
18418.47,3878.486156,1750.146031
18459.98,3875.430822,1749.987006
18498.39,3872.399807,1749.958396
18535.78,3869.355440,1749.984145
18572.65,3866.266727,1750.270844
18610.88,3863.167763,1749.981403
18646.78,3860.161066,1749.937057
18682.45,3857.107878,1750.393748
18722.04,3854.101658,1750.038981
18758.02,3851.092577,1750.053525
18796.68,3848.016024,1750.230432
18831.65,3845.005512,1750.061154
18868.80,3841.993332,1750.618458
18904.51,3838.938236,1750.349879
18945.82,3835.936546,1750.398636
18982.86,3832.934618,1750.005364
19022.79,3829.899788,1750.244260
19059.52,3826.897621,1750.478983
19101.12,3823.880196,1750.419497
19138.86,3820.839405,1750.290751
19176.88,3817.790031,1749.799967
19218.97,3814.790010,1750.331879
19255.43,3811.780214,1750.092149
19296.20,3808.768749,1750.187635
19340.12,3805.711031,1750.190377
19381.03,3802.648067,1750.414848
19420.74,3799.626112,1750.310421
19459.13,3796.622515,1750.190735
19504.82,3793.616295,1749.955177
19545.73,3790.601492,1750.563502
19588.21,3787.590981,1749.943972
19627.93,3784.556866,1750.482202
19668.32,3781.531096,1749.400973
19710.61,3778.523684,1750.050306
19751.59,3775.490761,1749.860525
19789.30,3772.486687,1750.014901
19827.23,3769.482851,1750.392914
19867.13,3766.456604,1749.407530
19903.68,3763.449669,1750.553489
19939.86,3760.402679,1749.348164
19976.14,3757.341862,1750.091910
20012.57,3754.305363,1750.138521
20048.28,3751.261473,1750.145912
20083.92,3748.236656,1750.500798
20116.12,3745.219469,1750.014305
20152.91,3742.177486,1750.152588
20185.17,3739.154339,1749.860287
20217.19,3736.126423,1750.108957
20254.17,3733.118773,1750.582099
20284.89,3730.118036,1750.529766
20318.01,3727.118015,1750.055790
20348.70,3724.106789,1750.430107
20379.43,3721.057892,1749.682069
20411.48,3718.038559,1750.533104
20440.19,3715.024471,1749.951482
20471.76,3712.015390,1750.237465
20502.95,3708.987236,1750.388980
20533.44,3705.983162,1749.839306
20565.44,3702.981710,1750.047565
20599.31,3699.966669,1750.266552
20633.11,3696.953535,1749.863386
20668.22,3693.946600,1750.332236
20705.56,3690.899849,1750.004888
20744.85,3687.872410,1750.067115
20783.48,3684.835672,1750.220299
20820.96,3681.805611,1750.200033
20860.14,3678.788424,1749.838829
20898.45,3675.768137,1750.196457
20935.10,3672.741652,1749.523520
20972.23,3669.690371,1749.847531
21007.55,3666.671038,1750.377417
21040.45,3663.609743,1750.072241
21074.29,3660.575390,1750.376582
21103.49,3657.567024,1750.581741
21130.82,3654.566526,1750.200391
21159.35,3651.557207,1749.850988
21185.85,3648.552179,1750.364065
21210.62,3645.543337,1750.598192
21234.48,3642.517090,1750.344276
21254.90,3639.439106,1749.984264
21275.11,3636.386156,1749.905705
21293.11,3633.322477,1750.382066
21309.47,3630.301476,1750.325203
21325.24,3627.288580,1750.280857
21338.60,3624.277592,1750.229955
21352.96,3621.244431,1750.133991
21364.65,3618.205786,1750.041246
21376.83,3615.190029,1749.931097
21388.85,3612.135410,1750.162244
21398.60,3609.130144,1749.908209
21408.58,3606.090546,1750.146747
21418.69,3603.077650,1750.153065
21427.76,3600.073099,1750.048876
21436.60,3597.023726,1749.965668
21445.17,3594.015837,1750.070572
21453.64,3590.989828,1750.209451
21461.73,3587.963104,1750.469446
21469.07,3584.952831,1749.898791
21476.46,3581.952333,1750.064611
21484.01,3578.918219,1750.259519
21491.02,3575.900316,1750.146031
21498.50,3572.900295,1750.045419
21504.93,3569.825649,1749.936342
21511.67,3566.786528,1749.677181
21518.30,3563.779354,1750.017881
21524.21,3560.777426,1749.801874
21530.45,3557.747126,1750.019073
21536.89,3554.658413,1750.134706
21543.39,3551.629305,1750.295162
21548.91,3548.615217,1750.066042
21555.02,3545.610666,1749.940276
21560.55,3542.585135,1750.348687
21566.36,3539.583445,1749.945641
21571.92,3536.578417,1749.798536
21577.24,3533.564329,1749.825478
21582.73,3530.489445,1750.133157
21588.01,3527.457714,1749.917507
21593.19,3524.403811,1750.268221
21598.51,3521.382332,1749.908686
21603.41,3518.350363,1750.149727
21608.63,3515.336037,1750.279546
21613.66,3512.320042,1750.205874
21618.55,3509.320021,1749.915838
21623.52,3506.305933,1749.955893
21628.16,3503.293991,1750.476599
21632.77,3500.222921,1750.513554
21637.72,3497.222900,1750.116587
21642.00,3494.218349,1750.265002
21646.48,3491.192818,1750.144720
21651.21,3488.133192,1749.969482
21655.44,3485.103369,1750.312328
21660.34,3482.093334,1750.204325
21664.72,3479.053020,1749.966383
21668.86,3475.998402,1750.304818
21673.26,3472.988605,1749.882340
21677.41,3469.957113,1750.183344
21681.73,3466.954947,1750.113964
21685.72,3463.939190,1750.217319
21689.91,3460.914373,1750.486016
21693.88,3457.898140,1750.285625
21698.27,3454.883814,1750.287414
21701.87,3451.877117,1749.850631
21706.23,3448.873520,1750.136018
21709.84,3445.851803,1749.962449
21713.83,3442.817450,1750.189066
21717.80,3439.802885,1750.074506
21721.58,3436.699629,1750.290275
21725.51,3433.687925,1750.202179
21728.78,3430.686235,1749.915004
21732.81,3427.668571,1749.950290
21736.52,3424.600363,1749.808431
21740.20,3421.580553,1749.993443
21743.69,3418.572426,1749.890089
21747.44,3415.541887,1750.156999
21750.91,3412.518024,1750.122547
21754.20,3409.513712,1749.758601
21757.81,3406.505108,1750.223517
21761.23,3403.457880,1750.197649
21764.79,3400.418758,1750.004053
21768.02,3397.418261,1750.140905
21771.22,3394.403696,1750.360250
